time_since_fade_in (s), phase_, amp (rad), freq (Hz), policy_output.at(motor_idx), policy_output.at(motor_idx) * params_.action_scales.at(motor_idx) (rad), motor_position (rad), motor_velocity (rad/s)
0.00548007, 0.0618747, 0, 1, 0, 0, 0.023344, -0.111115
0.00622938, 0.106619, 0, 1, 0, 0, 0.0221996, -0.174606
0.0140755, 0.165664, 0, 1, 0, 0, 0.0210552, -0.269844
0.0147818, 0.217384, 0, 1, 0, 0, 0.0199108, -0.269844
0.0196429, 0.25409, 0, 1, 0, 0, 0.0187664, -0.238098
0.0226298, 0.298044, 0, 1, 0, 0, 0.0180034, -0.206352
0.0279368, 0.350208, 0, 1, 0, 0, 0.016859, -0.238098
0.0306146, 0.394089, 0, 1, 0, 0, 0.0153331, -0.333336
0.0352717, 0.442089, 0, 1, 0, 0, 0.0134258, -0.428574
0.0394176, 0.491001, 0, 1, 0, 0, 0.0115184, -0.46032
0.0426048, 0.534808, 0, 1, 0, 0, 0.010374, -0.396828
0.048615, 0.591252, 0, 1, 0, 0, 0.00846573, -0.333336
0.0497039, 0.629396, 0, 1, 0, 0, 0.00579544, -0.46032
0.0553989, 0.678201, 0, 1, 0, 0, 0.00388809, -0.555557
0.0577071, 0.716402, 0, 1, 0, 0, 0.00236221, -0.46032
0.0642248, 0.77031, 0, 1, 0, 0, 0.00198074, -0.269844
0.0656971, 0.808414, 0, 1, 0, 0, 0.00274368, -0.0158768
0.0736857, 0.871593, 0, 1, 0, 0, 0.00388809, 0.174606
0.0743984, 0.918461, 0, 1, 0, 0, 0.00426956, 0.174606
0.0796009, 0.95981, 0, 1, 0, 0, 0.00426956, 0.14286
0.0835657, 1.00967, 0, 1, 0, 0, 0.00426956, 0.0476227
0.0880476, 1.06255, 0, 1, 0, 0, 0.00388809, -0.0158768
0.089712, 1.1007, 0, 1, 0, 0, 0.00388809, -0.0476227
0.0956173, 1.15085, 0, 1, 0, 0, 0.00388809, -0.0158768
0.0977094, 1.18901, 0, 1, 0, 0, 0.00388809, 0.0158768
0.105219, 1.24925, 0, 1, 0, 0, 0.00388809, 0.0158768
0.105984, 1.29067, 0, 1, 0, 0, 0.00388809, 0.0158768
0.112757, 1.34505, 0, 1, 0, 0, 0.00388809, 0.0158768
0.114532, 1.38833, 0, 1, 0, 0, 0.00388809, 0.0158768
0.119576, 1.43824, 0, 1, 0, 0, 0.00388809, 0.0158768
0.123498, 1.48766, 0, 1, 0, 0, 0.00388809, 0.0158768
0.127868, 1.53938, 0, 1, 0, 0, 0.00388809, 0.0158768
0.129702, 1.57751, 0, 1, 0, 0, 0.00388809, 0.0158768
0.135498, 1.62692, 0, 1, 0, 0, 0.00388809, 0.0158768
0.137702, 1.66505, 0, 1, 0, 0, 0.00388809, 0.0158768
0.145955, 1.72992, 0, 1, 0, 0, 0.00388809, 0.0158768
0.146672, 1.7802, 0, 1, 0, 0, 0.00388809, 0.0158768
0.152881, 1.82619, 0, 1, 0, 0, 0.00388809, 0.0158768
0.153702, 1.86431, 0, 1, 0, 0, 0.00388809, 0.0158768
0.159803, 1.91566, 0, 1, 0, 0, 0.00388809, 0.0158768
0.164132, 1.96906, 0, 1, 0, 0, 0.00388809, 0.0158768
0.165708, 2.00723, 0, 1, 0, 0, 0.00388809, 0.0158768
0.173002, 2.06611, 0, 1, 0, 0, 0.00388809, 0.0158768
0.17372, 2.10443, 0, 1, 0, 0, 0.00388809, 0.0158768
0.179521, 2.15388, 0, 1, 0, 0, 0.00388809, 0.0158768
0.182868, 2.19933, 0, 1, 0, 0, 0.00388809, 0.0158768
0.187846, 2.25095, 0, 1, 0, 0, 0.00388809, 0.0158768
0.191495, 2.30036, 0, 1, 0, 0, 0.00388809, 0.0158768
0.194523, 2.34361, 0, 1, 0, 0, 0.00388809, 0.0158768
0.19946, 2.39278, 0, 1, 0, 0, 0.00388809, 0.0158768
0.2017, 2.43091, 0, 1, 0, 0, 0.00388809, 0.0158768
0.20812, 2.48424, 0, 1, 0, 0, 0.00388809, 0.0158768
0.209699, 2.52235, 0, 1, 0, 0, 0.00388809, 0.0158768
0.21544, 2.57141, 0, 1, 0, 0, 0.00388809, 0.0158768
0.219482, 2.62073, 0, 1, 0, 0, 0.00388809, 0.0158768
0.223438, 2.66977, 0, 1, 0, 0, 0.00388809, 0.0158768
0.227899, 2.72171, 0, 1, 0, 0, 0.00388809, 0.0158768
0.230468, 2.76466, 0, 1, 0, 0, 0.00388809, 0.0158768
0.235273, 2.81268, 0, 1, 0, 0, 0.00388809, 0.0158768
0.23948, 2.86201, 0, 1, 0, 0, 0.00388809, 0.0158768
0.241724, 2.90026, 0, 1, 0, 0, 0.00388809, 0.0158768
0.247887, 2.95211, 0, 1, 0, 0, 0.00388809, 0.0158768
0.2497, 2.99022, 0, 1, 0, 0, 0.00388809, 0.0158768
0.255998, 3.04279, 0, 1, 0, 0, 0.00388809, 0.0158768
0.259496, 3.09221, 0, 1, 0, 0, 0.00388809, 0.0158768
0.261699, 3.13031, 0, 1, 0, 0, 0.00388809, 0.0158768
0.26819, 3.18409, 0, 1, -0, -0, 0.00388809, 0.0158768
0.269699, 3.22221, 0, 1, -0, -0, 0.00388809, 0.0158768
0.275368, 3.27085, 0, 1, -0, -0, 0.00388809, 0.0158768
0.277698, 3.30888, 0, 1, -0, -0, 0.00388809, 0.0158768
0.285427, 3.37043, 0, 1, -0, -0, 0.00388809, 0.0158768
0.286154, 3.41414, 0, 1, -0, -0, 0.00388809, 0.0158768
0.292694, 3.46562, 0, 1, -0, -0, 0.00388809, 0.0158768
0.293706, 3.50375, 0, 1, -0, -0, 0.00388809, 0.0158768
0.299866, 3.55552, 0, 1, -0, -0, 0.00388809, 0.0158768
0.303342, 3.60391, 0, 1, -0, -0, 0.00388809, 0.0158768
0.307879, 3.65574, 0, 1, -0, -0, 0.00388809, 0.0158768
0.309701, 3.69384, 0, 1, -0, -0, 0.00388809, 0.0158768
0.315343, 3.74229, 0, 1, -0, -0, 0.00388809, 0.0158768
0.319417, 3.7912, 0, 1, -0, -0, 0.00388809, 0.0158768
0.3217, 3.82932, 0, 1, -0, -0, 0.00388809, 0.0158768
0.328125, 3.88269, 0, 1, -0, -0, 0.00388809, 0.0158768
0.329698, 3.9208, 0, 1, -0, -0, 0.00388809, 0.0158768
0.33554, 3.97053, 0, 1, -0, -0, 0.00388809, 0.0158768
0.339386, 4.01918, 0, 1, -0, -0, 0.00388809, 0.0158768
0.343317, 4.06747, 0, 1, -0, -0, 0.00388809, 0.0158768
0.347938, 4.11965, 0, 1, -0, -0, 0.00388809, 0.0158768
0.349696, 4.15773, 0, 1, -0, -0, 0.00388809, 0.0158768
0.355347, 4.20621, 0, 1, -0, -0, 0.00388809, 0.0158768
0.359409, 4.25507, 0, 1, -0, -0, 0.00388809, 0.0158768
0.363303, 4.30326, 0, 1, -0, -0, 0.00388809, 0.0158768
0.368316, 4.35783, 0, 1, -0, -0, 0.00388809, 0.0158768
0.369715, 4.39605, 0, 1, -0, -0, 0.00388809, 0.0158768
0.375543, 4.44575, 0, 1, -0, -0, 0.00388809, 0.0158768
0.379391, 4.4945, 0, 1, -0, -0, 0.00388809, 0.0158768
0.381704, 4.53267, 0, 1, -0, -0, 0.00388809, 0.0158768
0.387936, 4.58486, 0, 1, -0, -0, 0.00388809, 0.0158768
0.389699, 4.6229, 0, 1, -0, -0, 0.00388809, 0.0158768
0.395326, 4.67123, 0, 1, -0, -0, 0.00388809, 0.0158768
0.39938, 4.71994, 0, 1, -0, -0, 0.00388809, 0.0158768
0.403348, 4.7684, 0, 1, -0, -0, 0.00388809, 0.0158768
0.407819, 4.81986, 0, 1, -0, -0, 0.00388809, 0.0158768
0.410469, 4.86279, 0, 1, -0, -0, 0.00388809, 0.0158768
0.414445, 4.90558, 0, 1, -0, -0, 0.00388809, 0.0158768
0.419432, 4.95458, 0, 1, -0, -0, 0.00388809, 0.0158768
0.425067, 5.01387, 0, 1, -0, -0, 0.00388809, 0.0158768
0.425795, 5.05305, 0, 1, -0, -0, 0.00388809, 0.0158768
0.432708, 5.10914, 0, 1, -0, -0, 0.00388809, 0.0158768
0.433699, 5.14725, 0, 1, -0, -0, 0.00388809, 0.0158768
0.441689, 5.21045, 0, 1, -0, -0, 0.00388809, 0.0158768
0.442401, 5.25735, 0, 1, -0, -0, 0.00388809, 0.0158768
0.447867, 5.3003, 0, 1, -0, -0, 0.00388809, 0.0158768
0.451976, 5.35273, 0, 1, -0, -0, 0.00388809, 0.0158768
0.454468, 5.39568, 0, 1, -0, -0, 0.00388809, 0.0158768
0.459401, 5.44448, 0, 1, -0, -0, 0.00388809, 0.0158768
0.463386, 5.4932, 0, 1, -0, -0, 0.00388809, 0.0158768
0.467448, 5.5423, 0, 1, -0, -0, 0.00388809, 0.0158768
0.471367, 5.5909, 0, 1, -0, -0, 0.00388809, 0.0158768
0.474499, 5.63407, 0, 1, -0, -0, 0.00388809, 0.0158768
0.479401, 5.68285, 0, 1, -0, -0, 0.00388809, 0.0158768
0.484223, 5.73682, 0, 1, -0, -0, 0.00388809, 0.0158768
0.485737, 5.77514, 0, 1, -0, -0, 0.00388809, 0.0158768
0.493448, 5.83679, 0, 1, -0, -0, 0.00388809, 0.0158768
0.494196, 5.88089, 0, 1, -0, -0, 0.00388809, 0.0158768
0.499385, 5.92384, 0, 1, -0, -0, 0.00388809, 0.0158768
0.504345, 5.97863, 0, 1, -0, -0, 0.00388809, 0.0158768
0.508256, 6.03276, 0, 1, -0, -0, 0.00388809, 0.0158768
0.50973, 6.07105, 0, 1, -0, -0, 0.00388809, 0.0158768
0.515491, 6.12043, 0, 1, -0, -0, 0.00388809, 0.0158768
0.519373, 6.16906, 0, 1, -0, -0, 0.00388809, 0.0158768
0.522495, 6.21215, 0, 1, -0, -0, 0.00388809, 0.0158768
0.527902, 6.26411, 0, 1, -0, -0, 0.00388809, 0.0158768
0.529716, 6.30232, 0, 1, 0, 0, 0.00388809, 0.0158768
0.535538, 6.35199, 0, 1, 0, 0, 0.00388809, 0.0158768
0.539368, 6.40062, 0, 1, 0, 0, 0.00388809, 0.0158768
0.541707, 6.43876, 0, 1, 0, 0, 0.00388809, 0.0158768
0.548298, 6.49315, 0, 1, 0, 0, 0.00388809, 0.0158768
0.550525, 6.53647, 0, 1, 0, 0, 0.00388809, 0.0158768
0.55448, 6.57949, 0, 1, 0, 0, 0.00388809, 0.0158768
0.55942, 6.62839, 0, 1, 0, 0, 0.00388809, 0.0158768
0.562517, 6.67169, 0, 1, 0, 0, 0.00388809, 0.0158768
0.567861, 6.72338, 0, 1, 0, 0, 0.00388809, 0.0158768
0.570462, 6.76629, 0, 1, 0, 0, 0.00388809, 0.0158768
0.574466, 6.80923, 0, 1, 0, 0, 0.00388809, 0.0158768
0.579402, 6.85805, 0, 1, 0, 0, 0.00388809, 0.0158768
0.585051, 6.91721, 0, 1, 0, 0, 0.00388809, 0.0158768
0.585779, 6.95622, 0, 1, 0, 0, 0.00388809, 0.0158768
0.592205, 7.00937, 0, 1, 0, 0, 0.00388809, 0.0158768
0.59445, 7.05213, 0, 1, 0, 0, 0.00388809, 0.0158768
0.599533, 7.1018, 0, 1, 0, 0, 0.00388809, 0.0158768
0.603418, 7.15062, 0, 1, 0, 0, 0.00388809, 0.0158768
0.607414, 7.19947, 0, 1, 0, 0, 0.00388809, 0.0158768
0.610586, 7.24332, 0, 1, 0, 0, 0.00388809, 0.0158768
0.615209, 7.29063, 0, 1, 0, 0, 0.00388809, 0.0158768
0.619317, 7.33894, 0, 1, 0, 0, 0.00388809, 0.0158768
0.622556, 7.38248, 0, 1, 0, 0, 0.00388809, 0.0158768
0.628014, 7.43515, 0, 1, 0, 0, 0.00388809, 0.0158768
0.630533, 7.47852, 0, 1, 0, 0, 0.00388809, 0.0158768
0.634589, 7.52223, 0, 1, 0, 0, 0.00388809, 0.0158768
0.639541, 7.57191, 0, 1, 0, 0, 0.00388809, 0.0158768
0.645031, 7.63095, 0, 1, 0, 0, 0.00388809, 0.0158768
0.645755, 7.66968, 0, 1, 0, 0, 0.00350662, -0.0158768
0.65227, 7.72345, 0, 1, 0, 0, 0.00350662, -0.0158768
0.653711, 7.76166, 0, 1, 0, 0, 0.00388809, 0.0476227
0.660522, 7.81748, 0, 1, 0, 0, 0.00350662, 0.0158768
0.663041, 7.86406, 0, 1, 0, 0, 0.00388809, 0.0158768
0.667994, 7.91656, 0, 1, 0, 0, 0.00388809, 0.0158768
0.669704, 7.95472, 0, 1, 0, 0, 0.00388809, 0.0158768
0.675277, 8.0028, 0, 1, 0, 0, 0.00388809, 0.0158768
0.679479, 8.05197, 0, 1, 0, 0, 0.00388809, 0.0158768
0.681702, 8.09007, 0, 1, 0, 0, 0.00388809, 0.0158768
0.68802, 8.14274, 0, 1, 0, 0, 0.00388809, 0.0158768
0.69054, 8.18614, 0, 1, 0, 0, 0.00388809, 0.0158768
0.694542, 8.22956, 0, 1, 0, 0, 0.00388809, 0.0158768
0.699472, 8.27881, 0, 1, 0, 0, 0.00388809, 0.0158768
0.704612, 8.33528, 0, 1, 0, 0, 0.00388809, 0.0158768
0.705734, 8.37354, 0, 1, 0, 0, 0.00388809, 0.0158768
0.713036, 8.43267, 0, 1, 0, 0, 0.00388809, 0.0158768
0.71379, 8.47166, 0, 1, 0, 0, 0.00388809, 0.0158768
0.720965, 8.52953, 0, 1, 0, 0, 0.00388809, 0.0158768
0.723263, 8.57729, 0, 1, 0, 0, 0.00388809, 0.0158768
0.727962, 8.62995, 0, 1, 0, 0, 0.00388809, 0.0158768
0.730452, 8.67278, 0, 1, 0, 0, 0.00388809, 0.0158768
0.734545, 8.7162, 0, 1, 0, 0, 0.00388809, 0.0158768
0.739405, 8.76505, 0, 1, 0, 0, 0.00388809, 0.0158768
0.743306, 8.81326, 0, 1, 0, 0, 0.00388809, 0.0158768
0.747403, 8.86208, 0, 1, 0, 0, 0.00388809, 0.0158768
0.751319, 8.91036, 0, 1, 0, 0, 0.00388809, 0.0158768
0.754444, 8.95317, 0, 1, 0, 0, 0.00388809, 0.0158768
0.75934, 9.00159, 0, 1, 0, 0, 0.00388809, 0.0158768
0.762475, 9.04459, 0, 1, 0, 0, 0.00388809, 0.0158768
0.768077, 9.09766, 0, 1, 0, 0, 0.00388809, 0.0158768
0.770502, 9.14082, 0, 1, 0, 0, 0.00388809, 0.0158768
0.774492, 9.18391, 0, 1, 0, 0, 0.00388809, 0.0158768
0.779365, 9.2325, 0, 1, 0, 0, 0.00388809, 0.0158768
0.784115, 9.28579, 0, 1, 0, 0, 0.00388809, 0.0158768
0.787395, 9.33458, 0, 1, 0, 0, 0.00388809, 0.0158768
0.790561, 9.37812, 0, 1, 0, 0, 0.00388809, 0.0158768
0.794519, 9.42139, 0, 1, 0, 0, 0.00388809, 0.0158768
0.80123, 9.48169, 0, 1, -0, -0, 0.00388809, 0.0158768
0.801937, 9.52279, 0, 1, -0, -0, 0.00388809, 0.0158768
0.807882, 9.57165, 0, 1, -0, -0, 0.00388809, 0.0158768
0.809706, 9.60981, 0, 1, -0, -0, 0.00388809, 0.0158768
0.815253, 9.65762, 0, 1, -0, -0, 0.00388809, 0.0158768
0.81938, 9.70628, 0, 1, -0, -0, 0.00388809, 0.0158768
0.823463, 9.75551, 0, 1, -0, -0, 0.00388809, 0.0158768
0.827371, 9.80412, 0, 1, -0, -0, 0.00388809, 0.0158768
0.832212, 9.85802, 0, 1, -0, -0, 0.00388809, 0.0158768
0.833698, 9.89614, 0, 1, -0, -0, 0.00388809, 0.0158768
0.840818, 9.95387, 0, 1, -0, -0, 0.00388809, 0.0158768
0.842483, 9.9969, 0, 1, -0, -0, 0.00388809, 0.0158768
0.847994, 10.0495, 0, 1, -0, -0, 0.00388809, 0.0158768
0.849722, 10.0877, 0, 1, -0, -0, 0.00388809, 0.0158768
0.85523, 10.1354, 0, 1, -0, -0, 0.00388809, 0.0158768
0.859331, 10.1837, 0, 1, -0, -0, 0.00388809, 0.0158768
0.86479, 10.2412, 0, 1, -0, -0, 0.00388809, 0.0158768
0.865696, 10.2793, 0, 1, -0, -0, 0.00388809, 0.0158768
0.87378, 10.3431, 0, 1, -0, -0, 0.00388809, 0.0158768
0.874518, 10.3913, 0, 1, -0, -0, 0.00388809, 0.0158768
0.87953, 10.431, 0, 1, -0, -0, 0.00388809, 0.0158768
0.881703, 10.4691, 0, 1, -0, -0, 0.00388809, 0.0158768
0.887794, 10.5204, 0, 1, -0, -0, 0.00388809, 0.0158768
0.891262, 10.5684, 0, 1, -0, -0, 0.00388809, 0.0158768
0.89454, 10.6118, 0, 1, -0, -0, 0.00388809, 0.0158768
0.901544, 10.674, 0, 1, -0, -0, 0.00388809, 0.0158768
0.903075, 10.7243, 0, 1, -0, -0, 0.00388809, 0.0158768
0.908088, 10.7704, 0, 1, -0, -0, 0.00388809, 0.0158768
0.910483, 10.8134, 0, 1, -0, -0, 0.00388809, 0.0158768
0.914504, 10.8566, 0, 1, -0, -0, 0.00388809, 0.0158768
0.919431, 10.9056, 0, 1, -0, -0, 0.00388809, 0.0158768
0.922518, 10.9489, 0, 1, -0, -0, 0.00388809, 0.0158768
0.927972, 11.0013, 0, 1, -0, -0, 0.00388809, 0.0158768
0.930438, 11.044, 0, 1, -0, -0, 0.00388809, 0.0158768
0.934486, 11.0871, 0, 1, -0, -0, 0.00388809, 0.0158768
0.940769, 11.1445, 0, 1, -0, -0, 0.00388809, 0.0158768
0.943328, 11.1929, 0, 1, -0, -0, 0.00388809, 0.0158768
0.947481, 11.2422, 0, 1, -0, -0, 0.00388809, 0.0158768
0.951363, 11.2908, 0, 1, -0, -0, 0.00388809, 0.0158768
0.95448, 11.3338, 0, 1, -0, -0, 0.00388809, 0.0158768
0.960468, 11.3893, 0, 1, -0, -0, 0.00388809, 0.0158768
0.963358, 11.4378, 0, 1, -0, -0, 0.00388809, 0.0158768
0.96766, 11.4883, 0, 1, -0, -0, 0.00388809, 0.0158768
0.971463, 11.5374, 0, 1, -0, -0, 0.00388809, 0.0158768
0.974679, 11.5817, 0, 1, -0, -0, 0.00388809, 0.0158768
0.979666, 11.6322, 0, 1, -0, -0, 0.00388809, 0.0158768
0.98172, 11.6705, 0, 1, -0, -0, 0.00388809, 0.0158768
0.988161, 11.724, 0, 1, -0, -0, 0.00388809, 0.0158768
0.990507, 11.7672, 0, 1, -0, -0, 0.00388809, 0.0158768
0.995312, 11.8154, 0, 1, -0, -0, 0.00388809, 0.0158768
0.999408, 11.8643, 0, 1, -0, -0, 0.00388809, 0.0158768
1.00345, 11.9134, 0, 1, -0, -0, 0.00388809, 0.0158768
1.00744, 11.9624, 0, 1, -0, -0, 0.00388809, 0.0158768
1.0116, 12.0125, 0, 1, -0, -0, 0.00350662, 0.0158768
1.01445, 12.0553, 0, 1, -0, -0, 0.00388809, 0.0158768
1.01941, 12.1042, 0, 1, -0, -0, 0.00388809, 0.0158768
1.02332, 12.1525, 0, 1, -0, -0, 0.00388809, 0.0158768
1.02742, 12.2014, 0, 1, -0, -0, 0.00388809, 0.0158768
1.02969, 12.2395, 0, 1, -0, -0, 0.00388809, 0.0158768
1.03543, 12.2885, 0, 1, -0, -0, 0.00388809, 0.0158768
1.0396, 12.3386, 0, 1, -0, -0, 0.00350662, -0.0158768
1.04338, 12.3873, 0, 1, -0, -0, 0.00388809, 0.0158768
1.04761, 12.4374, 0, 1, -0, -0, 0.00388809, 0.0476227
1.05262, 12.4939, 0, 1, -0, -0, 0.00388809, 0.0158768
1.05369, 12.532, 0, 1, -0, -0, 0.00388809, 0.0158768
1.06082, 12.5897, 0, 1, 0, 0, 0.00388809, 0.0158768
1.06258, 12.6333, 0, 1, 0, 0, 0.00388809, 0.0158768
1.06797, 12.6857, 0, 1, 0, 0, 0.00388809, 0.0158768
1.07045, 12.7286, 0, 1, 0, 0, 0.00388809, -0.0158768
1.07455, 12.772, 0, 1, 0, 0, 0.00388809, 0.0158768
1.08074, 12.8292, 0, 1, 0, 0, 0.00350662, 0.0158768
1.08361, 12.8794, 0, 1, 0, 0, 0.00388809, 0.0158768
1.08755, 12.9291, 0, 1, 0, 0, 0.00388809, 0.0158768
1.09154, 12.9788, 0, 1, 0, 0, 0.00350662, -0.0158768
1.09455, 13.0223, 0, 1, 0, 0, 0.00388809, 0.0158768
1.1003, 13.0767, 0, 1, 0, 0, 0.00388809, 0.0476227
1.10358, 13.1265, 0, 1, 0, 0, 0.00388809, 0.0158768
1.10756, 13.1767, 0, 1, 0, 0, 0.00388809, 0.0158768
1.11157, 13.2266, 0, 1, 0, 0, 0.00388809, 0.0158768
1.11462, 13.2704, 0, 1, 0, 0, 0.00388809, 0.0158768
1.11953, 13.32, 0, 1, 0, 0, 0.00388809, 0.0158768
1.12356, 13.3698, 0, 1, 0, 0, 0.00388809, 0.0158768
1.1257, 13.408, 0, 1, 0, 0, 0.00388809, 0.0158768
1.13266, 13.4647, 0, 1, 0, 0, 0.00388809, 0.0158768
1.13372, 13.5029, 0, 1, 0, 0, 0.00388809, 0.0158768
1.13956, 13.5527, 0, 1, 0, 0, 0.00388809, 0.0158768
1.14252, 13.596, 0, 1, 0, 0, 0.00388809, 0.0158768
1.14784, 13.6475, 0, 1, 0, 0, 0.00388809, 0.0158768
1.15152, 13.6971, 0, 1, 0, 0, 0.00388809, 0.0158768
1.15449, 13.7402, 0, 1, 0, 0, 0.00388809, 0.0158768
1.15947, 13.7894, 0, 1, 0, 0, 0.00388809, 0.0158768
1.16252, 13.8327, 0, 1, 0, 0, 0.00388809, 0.0158768
1.16783, 13.8842, 0, 1, 0, 0, 0.00388809, 0.0158768
1.1697, 13.9223, 0, 1, 0, 0, 0.00388809, 0.0158768
1.17535, 13.9708, 0, 1, 0, 0, 0.00388809, 0.0158768
1.17948, 14.02, 0, 1, 0, 0, 0.00388809, 0.0158768
1.1817, 14.0582, 0, 1, 0, 0, 0.00388809, 0.0158768
1.18876, 14.1155, 0, 1, 0, 0, 0.00388809, 0.0158768
1.19147, 14.1647, 0, 1, 0, 0, 0.00388809, 0.0158768
1.19446, 14.2077, 0, 1, 0, 0, 0.00388809, 0.0158768
1.20064, 14.2642, 0, 1, 0, 0, 0.00388809, 0.0158768
1.20253, 14.3075, 0, 1, 0, 0, 0.00388809, 0.0158768
1.20785, 14.3592, 0, 1, 0, 0, 0.00388809, 0.0158768
1.2097, 14.3973, 0, 1, 0, 0, 0.00388809, 0.0158768
1.21559, 14.4474, 0, 1, 0, 0, 0.00388809, 0.0158768
1.21951, 14.4966, 0, 1, 0, 0, 0.00388809, 0.0158768
1.22352, 14.5464, 0, 1, 0, 0, 0.00388809, 0.0158768
1.22749, 14.5958, 0, 1, 0, 0, 0.00388809, 0.0158768
1.2297, 14.6339, 0, 1, 0, 0, 0.00388809, 0.0158768
1.23544, 14.683, 0, 1, 0, 0, 0.00388809, 0.0158768
1.23942, 14.7319, 0, 1, 0, 0, 0.00388809, 0.0158768
1.2417, 14.77, 0, 1, 0, 0, 0.00388809, 0.0158768
1.24782, 14.8214, 0, 1, 0, 0, 0.00388809, 0.0158768
1.25142, 14.8703, 0, 1, 0, 0, 0.00388809, 0.0158768
1.25451, 14.9135, 0, 1, 0, 0, 0.00388809, 0.0158768
1.26043, 14.9688, 0, 1, 0, 0, 0.00388809, 0.0158768
1.26342, 15.0177, 0, 1, 0, 0, 0.00388809, 0.0158768
1.26786, 15.0694, 0, 1, 0, 0, 0.00388809, 0.0158768
1.26971, 15.1076, 0, 1, 0, 0, 0.00388809, 0.0158768
1.27448, 15.1506, 0, 1, 0, 0, 0.00388809, 0.0158768
1.27941, 15.1996, 0, 1, 0, 0, 0.00388809, 0.0158768
1.2817, 15.2376, 0, 1, 0, 0, 0.00388809, 0.0158768
1.2887, 15.2946, 0, 1, 0, 0, 0.00388809, 0.0158768
1.29145, 15.3438, 0, 1, 0, 0, 0.00388809, 0.0158768
1.29447, 15.3867, 0, 1, 0, 0, 0.00388809, 0.0158768
1.30017, 15.4403, 0, 1, 0, 0, 0.00388809, 0.0158768
1.30336, 15.4889, 0, 1, 0, 0, 0.00388809, 0.0158768
1.30746, 15.5381, 0, 1, 0, 0, 0.00388809, 0.0158768
1.31049, 15.5811, 0, 1, 0, 0, 0.00388809, 0.0158768
1.31455, 15.6245, 0, 1, 0, 0, 0.00388809, 0.0158768
1.3195, 15.6739, 0, 1, 0, 0, 0.00388809, 0.0158768
1.32339, 15.7227, 0, 1, -0, -0, 0.00388809, 0.0158768
1.3274, 15.7715, 0, 1, -0, -0, 0.00388809, 0.0158768
1.33247, 15.827, 0, 1, -0, -0, 0.00388809, 0.0158768
1.3337, 15.8651, 0, 1, -0, -0, 0.00388809, 0.0158768
1.34148, 15.927, 0, 1, -0, -0, 0.00388809, 0.0158768
1.34221, 15.9715, 0, 1, -0, -0, 0.00388809, 0.0158768
1.3479, 16.0171, 0, 1, -0, -0, 0.00388809, 0.0158768
1.35045, 16.06, 0, 1, -0, -0, 0.00388809, 0.0158768
1.35547, 16.1092, 0, 1, -0, -0, 0.00388809, 0.0158768
1.35942, 16.1581, 0, 1, -0, -0, 0.00388809, 0.0158768
1.36344, 16.2072, 0, 1, -0, -0, 0.00388809, 0.0158768
1.36737, 16.2558, 0, 1, -0, -0, 0.00388809, 0.0158768
1.37048, 16.2989, 0, 1, -0, -0, 0.00388809, 0.0158768
1.37369, 16.3369, 0, 1, -0, -0, 0.00388809, 0.0158768
1.38017, 16.3906, 0, 1, -0, -0, 0.00388809, 0.0158768
1.38332, 16.4389, 0, 1, -0, -0, 0.00388809, 0.0158768
1.38738, 16.4876, 0, 1, -0, -0, 0.00388809, 0.0158768
1.3897, 16.5257, 0, 1, -0, -0, 0.00388809, 0.0158768
1.39531, 16.5739, 0, 1, -0, -0, 0.00388809, 0.0158768
1.39938, 16.6226, 0, 1, -0, -0, 0.00388809, 0.0158768
1.40342, 16.6715, 0, 1, -0, -0, 0.00388809, 0.0158768
1.40736, 16.72, 0, 1, -0, -0, 0.00388809, 0.0158768
1.41047, 16.7631, 0, 1, -0, -0, 0.00388809, 0.0158768
1.41445, 16.8058, 0, 1, -0, -0, 0.00388809, 0.0158768
1.41938, 16.8545, 0, 1, -0, -0, 0.00388809, 0.0158768
1.42342, 16.9035, 0, 1, -0, -0, 0.00388809, 0.0158768
1.4274, 16.9523, 0, 1, -0, -0, 0.00388809, 0.0158768
1.43137, 17.0009, 0, 1, -0, -0, 0.00388809, 0.0158768
1.43447, 17.0439, 0, 1, -0, -0, 0.00388809, 0.0158768
1.44062, 17.1003, 0, 1, -0, -0, 0.00388809, 0.0158768
1.44245, 17.1432, 0, 1, -0, -0, 0.00388809, 0.0158768
1.44743, 17.1921, 0, 1, -0, -0, 0.00388809, 0.0158768
1.4532, 17.2523, 0, 1, -0, -0, 0.00388809, 0.0158768
1.45391, 17.293, 0, 1, -0, -0, 0.00388809, 0.0158768
1.45935, 17.3389, 0, 1, -0, -0, 0.00388809, 0.0158768
1.46349, 17.3883, 0, 1, -0, -0, 0.00388809, 0.0158768
1.46741, 17.4372, 0, 1, -0, -0, 0.00388809, 0.0158768
1.47046, 17.4801, 0, 1, -0, -0, 0.00388809, 0.0158768
1.47453, 17.5234, 0, 1, -0, -0, 0.00388809, 0.0158768
1.47945, 17.5726, 0, 1, -0, -0, 0.00388809, 0.0158768
